1189.838777
1168.312641
1166.932677
1153.287545
1157.418488
1159.479947
1152.741659
1184.610702
1370.827689
1719.823611
1938.803085
1921.393087
1801.938553
1658.887596
1604.179220
1581.252765
1515.470073
1408.743771
1311.275395
1258.194832
1238.362644
1247.755741
1243.284767
1222.424665
1198.230006
1151.829839
1146.652030
1155.128370
1189.561641
1192.986723
1162.581380
1141.720812
1155.453317
1279.653220
1569.627151
1759.978925
1761.982769
1671.201683
1527.323564
1508.539679
1529.719270
1474.804280
1389.564903
1289.888662
1237.443122
1209.195899
1195.367558
1198.671314
1199.386436
1186.481885
1179.053831
1187.760940
1205.286783
1195.792143
1179.516305
1181.662220
1186.977913
1256.547726
1460.377076
1624.599932
1666.930589
1574.058181
1462.290290
1455.050245
1480.507934
1439.071026
1368.782300
1286.892507
1236.754410
1214.893715
1179.544083
1164.296786
1165.073116
1160.517162
1173.562828
1182.012106
1214.496922
1224.167296
1209.287157
1189.905414
1201.142520
1313.250236
1573.635369
1742.429799
1763.230363
1690.015756
1590.360318
1577.963385
1571.927509
1517.876058
1429.576715
1331.381541
1267.679618
1237.061736
1223.240251
1207.765009
1207.422620
1212.452789
1221.656365
1222.300434
1211.217763
1207.539511
1228.304307
1202.422013
1207.855193
1244.475966
1422.164024
1708.899934
1839.479818
1803.143647
1721.995607
1606.920781
1555.221272
1549.856024
1495.671632
1429.025270
1356.345257
1295.596432
1277.305168
1262.209327
1230.117596
1205.698382
1206.962213
1204.181702
1200.891780
1213.232373
1235.982193
1228.777383
1220.400933
1220.784299
1235.639554
1391.737229
1670.232862
1784.155398
1712.614500
1587.700147
1503.730768
1511.345734
1527.818683
1459.122606
1375.487209
1327.191446
1264.580999
1212.959547
1212.066298
1234.766749
1240.797905
1232.836254
1227.784926
1214.646132
1226.115146
1241.339114
1239.332022
1231.643454
1284.553622
1497.554405
1750.267958
1815.393527
1763.085100
1653.084135
1565.451449
1543.067531
1546.715456
1501.300437
1394.503803
1307.254787
1275.491747
1259.374530
1237.269961
1217.752147
1226.813036
1227.461494
1239.073131
1237.989581
1243.305414
1242.532640
1235.188467
1232.033571
1257.638113
1436.997299
1731.495506
1896.319031
1883.407326
1776.787711
1676.546612
1656.105312
1656.257233
1567.853483
1446.639536
1370.269592
1306.273949
1281.225444
1271.196636
1257.120881
1249.346994
1235.231094
1238.932548
1232.558679
1230.179861
1222.251209
1231.441688
1242.929801
1211.335566
1224.989376
1471.727682
1784.653571
1892.639055
1811.341479
1668.867896
1584.953010
1611.591915
1622.379495
1554.510585
1435.397622
1329.066628
1276.530809
1251.634497
1233.442088
1232.573890
1245.372707
1262.696067
1257.187209
1239.960630
1227.999441
1218.125582
1217.708398
1256.438312
1388.814126
1637.064392
1782.624756
1743.102004
1614.899540
1520.839381
1519.315995
1539.853481
1506.204516
1422.888451
1332.861414
1304.072744
1293.081548
1265.127252
1260.674241
1237.969250
1224.804746
1254.353711
1282.658567
1266.328418
1219.538041
1206.110574
1313.616036
1651.484584
1973.559551
2004.394955
1886.686980
1734.610271
1649.553865
1651.048558
1626.526646
1551.691796
1453.582462
1394.014483
1353.516234
1323.347811
1280.072959
1240.350755
1236.086326
1241.954398
1242.684667
1238.532862
1233.515666
1209.123413
1224.427736
1399.280476
1798.675472
2072.378507
2093.218085
1974.527380
1799.979946
1705.648156
1699.898448
1676.378550
1597.571619
1509.191725
1431.845442
1350.062323
1290.842305
1282.044941
1251.905832
1228.668908
1234.189134
1212.254439
1201.788464
1192.314636
1185.412374
1174.440470
1253.135848
1609.216650
1982.291247
2056.024888
1944.178464
1778.411286
1666.974080
1690.104853
1690.185796
1592.685855
1449.503407
1346.300437
1295.634610
1276.094170
1266.731139
1253.785897
1245.908995
1225.228571
1177.053286
1163.408969
1180.913320
1200.324203
1257.961476
1564.665984
1970.326657
2084.962509
1995.390189
1824.459229
1649.258842
1625.310794
1680.729161
1630.705501
1486.124881
1345.471282
1270.761411
1242.564569
1237.561314
1233.553432
1245.470411
1231.668552
1197.197986
1137.473117
1127.452328
1141.541000
1137.485214
1188.285187
1508.855927
1935.900840
2113.241507
2101.027114
1973.850225
1798.827024
1710.992211
1691.662266
1640.165901
1529.410215
1408.560743
1329.479412
1263.397504
1219.769523
1228.323308
1231.273419
1213.667415
1184.040847
1153.391720
1158.639370
1159.490812
1106.750317
1102.952658
1124.016299
1313.824235
1791.000087
2093.668674
2072.744544
1932.269641
1739.666028
1637.686481
1680.186928
1647.425098
1514.335948
1356.089860
1277.220705
1247.172565
1231.811417
1202.102302
1169.782962
1156.957554
1143.290915
1142.019944
1141.711971
1134.282101
1127.641435
1120.337032
1123.493858
1218.962341
1576.357995
1900.084656
1893.828925
1747.293027
1572.059520
1502.556998
1534.227796
1526.801515
1445.798501
1335.308013
1244.810755
1203.494636
1168.088551
1152.859479
1180.130418
1190.166511
1173.688150
1150.338423
1119.433866
1127.136202
1159.178879
1150.068001
1165.000462
1432.275252
1788.054662
1932.593887
1859.831432
1713.078844
1583.672729
1532.259153
1529.024702
1476.286861
1381.381761
1304.348080
1238.922205
1227.338514
1223.040088
1176.397042
1161.199001
1147.968260
1116.993290
1106.354525
1115.182227
1131.517806
1125.543756
1120.706151
1140.729081
1308.687823
1669.657286
1842.430092
1839.724708
1762.743098
1624.648279
1549.229484
1531.522139
1486.241038
1411.638786
1323.217317
1256.172172
1208.509665
1211.872612
1189.767603
1161.330242
1166.803460
1171.604453
1175.730560
1162.755279
1140.386732
1135.657202
1130.452857
1130.680549
1163.936812
1418.451375
1720.109595
1813.771424
1750.981733
1585.693616
1465.500725
1463.301954
1470.424224
1421.158708
1359.421510
1307.964257
1257.490826
1199.943609
1189.453241
1211.724278
1212.152633
1195.250794
1201.556449
1192.556714
1162.460500
1165.246356
1156.900056
1193.187410
1363.823791
1653.858557
1786.152598
1747.902931
1637.586529
1519.766219
1472.781643
1476.461323
1477.269328
1388.390023
1301.239685
1261.699144
1223.964529
1198.564249
1200.494005
1219.728392
1214.459481
1211.775649
1216.803902
1210.794635
1165.541105
1143.881472
1163.499876
1326.778135
1722.097787
1960.474452
1955.900625
1894.886695
1777.428408
1702.180347
1680.468140
1637.593915
1538.002863
1445.911066
1370.158441
1308.519097
1278.437836
1263.954499
1232.841707
1236.387023
1223.260823
1222.316410
1210.219964
1188.013041
1167.133131
1142.522882
1189.242182
1449.514721
1854.390691
2042.734360
2019.934193
1908.412421
1747.821411
1683.348847
1701.841694
1674.711908
1526.868840
1381.817563
1329.868349
1284.022325
1273.379701
1271.356773
1267.161116
1245.832863
1212.711949
1193.888825
1186.395550
1199.032150
1191.270337
1208.592142
1469.250838
1876.864744
2019.899833
1929.207541
1747.735301
1614.927924
1613.015941
1644.686182
1593.033792
1469.773015
1364.866517
1294.402179
1259.201822
1243.113754
1253.362748
1241.954008
1212.091054
1186.195489
1177.935102
1172.960049
1172.953978
1186.408821
1340.301053
1779.199281
2135.984354
2181.190647
2083.769451
1899.047682
1760.580067
1758.314520
1733.229069
1634.130326
1494.001967
1386.307527
1316.013437
1255.583237
1250.670937
1266.675208
1257.810905
1214.752104
1170.454925
1155.249985
1151.132419
1144.323957
1127.015921
1221.058064
1650.272911
2080.498301
2165.468286
2084.714626
1933.525181
1792.163565
1749.644450
1712.642282
1605.853589
1466.531338
1357.671863
1299.531410
1259.308486
1200.833434
1177.003650
1194.857926
1194.555779
1171.499839
1138.367959
1125.519130
1094.216967
1073.488618
1097.417997
1307.021488
1758.752149
2001.039889
1956.856213
1793.346723
1608.366344
1560.017094
1600.629227
1586.601905
1479.438346
1349.064226
1251.290788
1224.184706
1202.878780
1159.857124
1160.586310
1150.925070
1165.731195
1143.425377
1097.125182
1072.091034
1071.729758
1171.637906
1526.118337
1913.283275
1993.018971
1884.483260
1705.378437
1549.095001
1527.331900
1538.210453
1469.496848
1373.642538
1300.413218
1242.886326
1203.216829
1169.625844
1164.931860
1152.026380
1147.861915
1112.811851
1097.150376
1112.646118
1087.474024
1095.079848
1104.390904
1173.244263
1469.591088
1803.733198
1888.326248
1840.100849
1712.638504
1581.494831
1560.995164
1557.907289
1484.262402
1367.179603
1281.063523
1240.970273
1189.216229
1174.133211
1205.312292
1201.477742
1167.873497
1118.086725
1090.417770
1096.052009
1088.019309
1091.662639
1096.138080
1114.082939
1118.390115
1287.708373
1600.997873
1724.031190
1707.521538
1662.763518
1550.916484
1488.346112
1501.826937
1444.496278
1335.009225
1249.345144
1197.031873
1179.001737
1188.015752
1170.570644
1169.395473
1152.820198
1134.219559
1128.634154
1129.720524
1163.485714
1167.327094
1147.312798
1147.379109
1153.914272
1267.606218
1508.585363
1644.075343
1603.312295
1507.601539
1416.952746
1403.710316
1384.088781
1353.000701
1309.816637
1253.526323
1225.001849
1202.514628
1191.950150
1180.900864
1165.213068
1170.594568
1184.630175
1192.659478
1196.533676
1175.751977
1170.988229
1177.515935
1181.923559
1221.410918
1422.257118
1636.614240
1700.852054
1696.331432
1588.424004
1492.362281
1454.957079
1412.098816
1372.671114
1339.609774
1319.567807
1294.591309
1271.535966
1237.264476
1226.286593
1227.702803
1199.319832
1165.885932
1176.972380
1200.262128
1226.138333
1213.387443
1216.006914
1232.056483
1225.543100
1290.826573
1492.781239
1673.124605
1694.300076
1616.152709
1537.640032
1507.348957
1509.465752
1498.966960
1436.600154
1357.368906
1319.361091
1292.951382
1277.505919
1259.831951
1241.190995
1209.994504
1242.874683
1241.624171
1204.024141
1194.423672
1209.497677
1225.033538
1232.048236
1223.975289
1245.239935
1343.584518
1519.515559
1676.953286
1666.363133
1567.492340
1477.032434
1468.790042
1481.484244
1471.399470
1451.814046
1397.674572
1312.687360
1244.888911
1244.078015
1263.098070
1260.357489
1254.702838
1257.114050
1246.783431
1236.742058
1224.662202
1256.858080
1265.321959
1240.486363
1315.016371
1553.109468
1747.247379
1779.368423
1688.407138
1589.497205
1564.648908
1580.390290
1551.456202
1483.307584
1395.281776
1354.678680
1310.166715
1278.672269
1279.759413
1265.226449
1247.953843
1263.070553
1246.542262
1240.864161
1236.185462
1248.308687
1237.349045
1222.069541
1270.629504
1489.251992
1796.697660
1937.504837
1907.117612
1790.136578
1687.788158
1683.317692
1685.581343
1617.447943
1514.230169
1405.224815
1336.876926
1312.531571
1283.085900
1266.758305
1257.920310
1251.359624
1255.224290
1235.972193
1235.026091
1246.261672
1265.343017
1269.362848
1248.161639
1236.520081
1343.090106
1661.179097
1935.227285
1967.349811
1848.033939
1684.518230
1649.256824
1674.109204
1648.153234
1541.193230
1438.115216
1358.316757
1302.493061
1265.421506
1283.232069
1272.008826
1233.624488
1230.852562
1221.836959
1253.776071
1272.374276
1247.476301
1241.891582
1235.740007
1215.155710
1289.301965
1544.708347
1791.060435
1830.272332
1734.894179
1587.806958
1537.243065
1572.580617
1574.590287
1514.465530
1422.263786
1313.528064
1279.166568
1293.945453
1278.827957
1261.204290
1256.026848
1230.712081
1194.869014
1199.549962
1239.771133
1246.146607
1204.060733
1208.979454
1349.364951
1672.648853
1897.549505
1896.168084
1778.175496
1635.296837
1600.375713
1627.175167
1596.319763
1491.676957
1402.253901
1328.219056
1294.230413
1272.138379
1239.845690
1243.093391
1239.341745
1234.306931
1224.475220
1206.086195
1202.702711
1210.342871
1238.273490
1236.881879
1300.986111
1623.194852
1927.133540
1957.867120
1847.796563
1711.461559
1617.507970
1602.906215
1557.555241
1470.295490
1396.819153
1324.227974
1276.628627
1263.218804
1249.999309
1270.003888
1260.331695
1223.730526
1215.355069
1246.559779
1236.753863
1197.706008
1197.691412
1212.331476
1286.637238
1580.476592
1841.214148
1866.341322
1755.045262
1593.039968
1536.929086
1572.443681
1587.005870
1526.083841
1406.050258
1289.650237
1229.546528
1218.756605
1246.567328
1289.722093
1277.225593
1245.899442
1213.965092
1179.223846
1209.632632
1216.591576
1204.206462
1242.566495
1561.548004
1939.512160
2011.983111
1911.977934
1755.668951
1651.405369
1660.777470
1642.953454
1571.736717
1437.932221
1343.384104
1305.684407
1291.593765
1282.344515
1263.910144
1261.951814
1272.704547
1252.424261
1222.580465
1198.682539
1202.030314
1198.912375
1199.438670
1226.697386
1464.500428
1894.958500
2111.629165
2065.553137
1898.269057
1712.447230
1663.447167
1691.249534
1645.061190
1564.498511
1437.361184
1334.936493
1293.820067
1275.418898
1262.254345
1249.293299
1248.150628
1220.167544
1184.960468
1156.734091
1162.651296
1184.022830
1206.623136
1199.502603
1273.731882
1619.748383
1978.153125
2019.357317
1908.112987
1744.572444
1628.932617
1646.272819
1669.582080
1599.811150
1459.060358
1340.992213
1283.527579
1262.017394
1273.522145
1287.074774
1262.537225
1206.920928
1226.256909
1244.873670
1198.212979
1179.823674
1173.447387
1179.607053
1407.082178
1844.049114
2062.997157
1997.839447
1832.365608
1665.526520
1629.613858
1659.673279
1616.156471
1502.468422
1390.838346
1319.805941
1285.508077
1268.670361
1248.469748
1250.656887
1268.432110
1251.924833
1217.944928
1201.409553
1181.069087
1169.169026
1142.225448
1153.302925
1308.204061
1758.478272
2172.512643
2228.856527
2116.127673
1978.619450
1833.257018
1778.372945
1728.374867
1632.423365
1502.025504
1430.976255
1346.211805
1294.194765
1281.056550
1284.799971
1271.033554
1223.843190
1213.380352
1190.915606
1169.310157
1172.408206
1195.990864
1179.109588
1143.209600
1102.718796
1122.733522
1348.098443
1842.293082
2131.551354
2111.320250
2028.570507
1865.569909
1735.152158
1726.359880
1667.259721
1555.018530
1420.157198
1318.006900
1250.908651
1231.954786
1217.592317
1210.726424
1216.130645
1202.864878
1182.921866
1157.031761
1100.579674
1104.812971
1125.726427
1145.877471
1139.343718
1119.279254
1135.958463
1341.805918
1705.957049
1872.259499
1835.754914
1706.887658
1532.682523
1502.392316
1544.858146
1503.257977
1421.584105
1304.342266
1228.753327
1202.701960
1198.944522
1182.237135
1177.523453
1182.776069
1187.869574
1175.661623
1138.168011
1126.146556
1126.985099
1129.640279
1124.008376
1125.966179
1184.471801
1457.998714
1786.093114
1878.696329
1810.756108
1686.394919
1562.778980
1489.767962
1491.251152
1454.702160
1382.463706
1320.620032
1278.118543
1233.937324
1197.917533
1198.394955
1196.209807
1188.393467
1163.413714
1153.437465
1151.763789
1132.977784
1119.028390
1140.626795
1148.785497
1137.891757
1164.035103
1250.639788
1477.788046
1711.400978
1790.159895
1762.181759
1642.324699
1548.004496
1516.432357
1478.345662
1428.531212
1342.794650
1260.659433
1228.875557
1194.324985
1172.108574
1186.540116
1182.932470
1169.290021
1164.714105
1157.156483
1167.529837
1168.057710
1156.081300
1150.275852
1154.795736
1181.968389
1215.159275
1221.992898
1332.760376
1548.480931
1655.857389
1601.042068
1517.449063
1459.971003
1459.893788
1458.388655
1416.276637
1351.334490
1300.210695
1276.647087
1233.106021
1230.099770
1235.237336
1227.414912
1226.331054
1205.588660
1166.137735
1142.882664
1167.224553
1179.752471
1191.444750
1196.321386
1210.830176
1277.977168
1472.485484
1651.839327
1691.228453
1647.806578
1547.110999
1493.736897
1499.446244
1487.610230
1437.118146
1361.293054
1287.655616
1261.286510
1261.314514
1255.131344
1238.726208
1226.687681
1235.900817
1250.856632
1246.061699
1222.505761
1196.640427
1203.214182
1213.153950
1236.076509
1238.828775
1315.322625
1505.893911
1682.374415
1760.457667
1728.454407
1660.915171
1618.609419
1605.299572
1571.159598
1489.557395
1392.825458
1337.092134
1307.779859
1281.464261
1256.641816
1253.319938
1254.987308
1252.054582
1246.624729
1235.524858
1224.312014
1220.833471
1235.277056
1236.130619
1242.943160
1258.745181
1244.310782
1389.570491
1644.317749
1743.900371
1723.086225
1686.711901
1655.516685
1637.400370
1639.702939
1590.146664
1471.255218
1359.847835
1308.123634
1301.414673
1310.021292
1289.393174
1285.304118
1287.281537
1262.712788
1245.420820
1235.741611
1240.764002
1242.466130
1245.290184
1235.593866
1260.609571
1453.104197
1717.011665
1847.872643
1827.365685
1707.788132
1618.742045
1644.272026
1673.728608
1613.953248
1500.782488
1412.212613
1352.349769
1335.596158
1296.347526
1286.075412
1275.920642
1238.867934
1263.307600
1265.615753
1246.184232
1242.067624
1223.909140
1242.509712
1239.607678
1216.946405
